 energy for orbital 1s     -617.89885875667403       Ryd
 normalization factor for orbital  1s    =  0.99488687045770141     
   4.4074832901305150E-006   454.85071704000291     
   4.4968582067794392E-006   452.31397327603383     
   4.5880454632322499E-006   449.82753906968719     
   4.6810818098487358E-006   447.39041232265174     
   4.7760047422000727E-006   445.00161080881929     
   4.8728525161797290E-006   442.66017177842042     
   4.9716641634206813E-006   440.36515157001236     
   5.0724795070252971E-006   438.11562523015800     
   5.1753391776141348E-006   435.91068614064568     
   5.2802846297001864E-006   433.74944565309767     
   5.3873581583950641E-006   431.63103273082254     
   5.4966029164540300E-006   429.55459359776330     
   5.6080629316665133E-006   427.51929139440449     
   5.7217831245993658E-006   425.52430584049483     
   5.8378093266997784E-006   423.56883290445353     
   5.9561882987653260E-006   421.65208447932412     
   6.0769677497885134E-006   419.77328806514583     
   6.2001963561833287E-006   417.93168645761801     
   6.3259237814017626E-006   416.12653744292459     
   6.4542006959479599E-006   414.35711349860406     
   6.5850787977982937E-006   412.62270150033788     
   6.7186108332353415E-006   410.92260243454325     
   6.8548506181043786E-006   409.25613111665228     
   6.9938530595008846E-006   407.62261591496429     
   7.1356741778977143E-006   406.02139847996079     
   7.2803711297209203E-006   404.45183347897398     
   7.4280022303833837E-006   402.91328833609958     
   7.5786269777853940E-006   401.40514297725338     
   7.7323060762917919E-006   399.92678958026426     
   7.8891014611951586E-006   398.47763232990650     
   8.0490763236751144E-006   397.05708717777071     
   8.2122951362636562E-006   395.66458160687620     
   8.3788236788267252E-006   394.29955440093283     
   8.5487290650727109E-006   392.96145541815542     
   8.7220797695982692E-006   391.64974536954247     
   8.8989456554826857E-006   390.36389560152850     
   9.0793980024414990E-006   389.10338788292313     
   9.2635095355511752E-006   387.86771419604969     
   9.4513544545558976E-006   386.65637653200224     
   9.6430084637689574E-006   385.46888668993307     
   9.8385488025799454E-006   384.30476608029647     
   1.0038054276580761E-005   383.16354553196476     
   1.0241605289322678E-005   382.04476510313873     
   1.0449283874717111E-005   380.94797389598062     
   1.0661173730093562E-005   379.87272987488961     
   1.0877360249927489E-005   378.81859968835062     
   1.1097930560252287E-005   377.78515849428163     
   1.1322973553768781E-005   376.77198978881222     
   1.1552579925666576E-005   375.77868523842102     
   1.1786842210171816E-005   374.80484451536682     
   1.2025854817835498E-005   373.85007513634679     
   1.2269714073578442E-005   372.91399230431398     
   1.2518518255506934E-005   371.99621875339631     
   1.2772367634515757E-005   371.09638459684680     
   1.3031364514693880E-005   370.21412717797091     
   1.3295613274549608E-005   369.34909092396566     
   1.3565220409071114E-005   368.50092720261551     
   1.3840294572640172E-005   367.66929418178364     
   1.4120946622815482E-005   366.85385669164583     
   1.4407289665003941E-005   366.05428608960790     
   1.4699439098037396E-005   365.27026012785410     
   1.4997512660673464E-005   364.50146282347356     
   1.5301630479039065E-005   363.74758433111094     
   1.5611915115035785E-005   363.00832081809057     
   1.5928491615726471E-005   362.28337434196465     
   1.6251487563723309E-005   361.57245273043435     
   1.6581033128597033E-005   360.87526946359770     
   1.6917261119328705E-005   360.19154355847417     
   1.7260307037824636E-005   359.52099945576157     
   1.7610309133516192E-005   358.86336690877937     
   1.7967408459066577E-005   358.21838087455166     
   1.8331748927206832E-005   357.58578140698899     
   1.8703477368724120E-005   356.96531355212267     
   1.9082743591625365E-005   356.35672724535328     
   1.9469700441500563E-005   355.75977721066744     
   1.9864503863109481E-005   355.17422286178606     
   2.0267312963217127E-005   354.59982820520185     
   2.0678290074702428E-005   354.03636174506880     
   2.1097600821967463E-005   353.48359638990263     
   2.1525414187671507E-005   352.94130936105893     
   2.1961902580818782E-005   352.40928210294675     
   2.2407241906225815E-005   351.88730019494614     
   2.2861611635397376E-005   351.37515326499135     
   2.3325194878838711E-005   350.87263490478603     
   2.3798178459834182E-005   350.37954258661591     
   2.4280752989720755E-005   349.89567758172541     
   2.4773112944687929E-005   349.42084488022493     
   2.5275456744133852E-005   348.95485311249826     
   2.5787986830610269E-005   348.49751447207592     
   2.6310909751387586E-005   348.04864463994448     
   2.6844436241673267E-005   347.60806271026280     
   2.7388781309517290E-005   347.17559111745231     
   2.7944164322438057E-005   346.75105556463473     
   2.8510809095805084E-005   346.33428495338620     
   2.9088943983011835E-005   345.92511131478159     
   2.9678801967477391E-005   345.52336974169930     
   3.0280620756512411E-005   345.12889832236010     
   3.0894642877087501E-005   344.74153807507395     
   3.1521115773542803E-005   344.36113288416669     
   3.2160291907278057E-005   343.98752943706285     
   3.2812428858463001E-005   343.62057716249791     
   3.3477789429809274E-005   343.26012816983456     
   3.4156641752445588E-005   342.90603718946113     
   3.4849259393938401E-005   342.55816151424472     
   3.5555921468502353E-005   342.21636094201801     
   3.6276912749444233E-005   341.88049771907566     
   3.7012523783884671E-005   341.55043648465738     
   3.7763051009807202E-005   341.22604421639500     
   3.8528796875476698E-005   340.90719017670347     
   3.9310069961280125E-005   340.59374586009096     
   4.0107185104035229E-005   340.28558494137013     
   4.0920463523819013E-005   339.98258322474703     
   4.1750232953365668E-005   339.68461859376913     
   4.2596827770087985E-005   339.39157096211108     
   4.3460589130773009E-005   339.10332222517849     
   4.4341865109007252E-005   338.81975621251144     
   4.5241010835387793E-005   338.54075864096598     
   4.6158388640573195E-005   338.26621706865814     
   4.7094368201234218E-005   337.99602084964874     
   4.8049326688960999E-005   337.73006108935283     
   4.9023648922188860E-005   337.46823060065503     
   5.0017727521200644E-005   337.21042386071281     
   5.1031963066272069E-005   336.95653696843033     
   5.2066764259018687E-005   336.70646760258751     
   5.3122548087015169E-005   336.46011498060403     
   5.4199739991746651E-005   336.21737981792467     
   5.5298774039966005E-005   335.97816428800849     
   5.6420093098520245E-005   335.74237198290530     
   5.7564149012721399E-005   335.50990787440452     
   5.8731402788329055E-005   335.28067827573966     
   5.9922324777220999E-005   335.05459080383429     
   6.1137394866825402E-005   334.83155434207288     
   6.2377102673389934E-005   334.61147900358304     
   6.3641947739166981E-005   334.39427609501229     
   6.4932439733592496E-005   334.17985808078765     
   6.6249098658541970E-005   333.96813854784074     
   6.7592455057741691E-005   333.75903217078599     
   6.8963050230424783E-005   333.55245467753730     
   7.0361436449313227E-005   333.34832281534960     
   7.1788177183015585E-005   333.14655431727118     
   7.3243847322930315E-005   332.94706786899383     
   7.4729033414745142E-005   332.74978307608654     
   7.6244333894622465E-005   332.55462043160156     
   7.7790359330173444E-005   332.36150128403636     
   7.9367732666307643E-005   332.17034780564268     
   8.0977089476065399E-005   331.98108296106619     
   8.2619078216528594E-005   331.79363047630676     
   8.4294360489914452E-005   331.60791480798611     
   8.6003611309956495E-005   331.42386111290887     
   8.7747519373681282E-005   331.24139521790744     
   8.9526787338686445E-005   331.06044358995729     
   9.1342132106036702E-005   330.88093330654891     
   9.3194285108884204E-005   330.70279202630900     
   9.5083992606937817E-005   330.52594795985306     
   9.7012015986890806E-005   330.35032984086342     
   9.8979132068933184E-005   330.17586689737732     
   1.0098613341947029E-004   330.00248882327469     
   1.0303382867017245E-004   329.83012574995416     
   1.0512304284348255E-004   329.65870821818652     
   1.0725461768471601E-004   329.48816715013214     
   1.0942941200088260E-004   329.31843382151470     
   1.1164830200636532E-004   329.14943983393584     
   1.1391218167560124E-004   328.98111708732347     
   1.1622196310289737E-004   328.81339775249927     
   1.1857857686953129E-004   328.64621424385734     
   1.2098297241828182E-004   328.47949919214102     
   1.2343611843554115E-004   328.31318541730701     
   1.2593900324115888E-004   328.14720590146771     
   1.2849263518617724E-004   327.98149376189849     
   1.3109804305861520E-004   327.81598222410042     
   1.3375627649746372E-004   327.65060459490769     
   1.3646840641505848E-004   327.48529423562860     
   1.3923552542800184E-004   327.31998453520839     
   1.4205874829679939E-004   327.15460888340567     
   1.4493921237439735E-004   326.98910064396847     
   1.4787807806378991E-004   326.82339312780169     
   1.5087652928488785E-004   326.65741956611413     
   1.5393577395083117E-004   326.49111308353355     
   1.5705704445393741E-004   326.32440667118135     
   1.6024159816147891E-004   326.15715740389999     
   1.6349071792149067E-004   325.98942285747466     
   1.6680571257880649E-004   325.82121580857364     
   1.7018791750153463E-004   325.65239528387468     
   1.7363869511817886E-004   325.48311841004380     
   1.7715943546562293E-004   325.31323952342501     
   1.8075155674819593E-004   325.14282114297208     
   1.8441650590804516E-004   324.97186757945832     
   1.8815575920703788E-004   324.80024538185671     
   1.9197082282042979E-004   324.62810486444306     
   1.9586323344253766E-004   324.45529753921153     
   1.9983455890465658E-004   324.28189066921203     
   2.0388639880546374E-004   324.10788011525494     
   2.0802038515417112E-004   323.93313968907182     
   2.1223818302667342E-004   323.75781287580787     
   2.1654149123496210E-004   323.58174826578909     
   2.2093204301006138E-004   323.40501765617580     
   2.2541160669877172E-004   323.22760845354179     
   2.2998198647448972E-004   323.04940145936365     
   2.3464502306238996E-004   322.87053331895822     
   2.3940259447925878E-004   322.69084958409525     
   2.4425661678827626E-004   322.51042637614540     
   2.4920904486904356E-004   322.32924262934256     
   2.5426187320316519E-004   322.14718585312306     
   2.5941713667569736E-004   321.96438583041521     
   2.6467691139278577E-004   321.78068493737732     
   2.7004331551581115E-004   321.59616340793332     
   2.7551851011238027E-004   321.41079166803183     
   2.8110470002450013E-004   321.22446364284013     
   2.8680413475428199E-004   321.03730222265312     
   2.9261910936751915E-004   320.84914644829803     
   2.9855196541550951E-004   320.66008045404010     
   3.0460509187548622E-004   320.47006610154125     
   3.1078092611001835E-004   320.27900342882316     
   3.1708195484578505E-004   320.08700839530741     
   3.2351071517208778E-004   319.89391652126591     
   3.3006979555951703E-004   319.69981563016188     
   3.3676183689916632E-004   319.50465894074705     
   3.4358953356280558E-004   319.30835229034511     
   3.5055563448444508E-004   319.11100466107007     
   3.5766294426370680E-004   318.91244783867273     
   3.6491432429144535E-004   318.71277312789687     
   3.7231269389806831E-004   318.51192500036774     
   3.7986103152500331E-004   318.30981476872194     
   3.8756237591978167E-004   318.10654438301663     
   3.9541982735521097E-004   317.90194164807042     
   4.0343654887311603E-004   317.69610114805215     
   4.1161576755314300E-004   317.48895847421102     
   4.1996077580712729E-004   317.28043008065293     
   4.2847493269953678E-004   317.07061082230581     
   4.3716166529451586E-004   316.85932423995729     
   4.4602447003005291E-004   316.64666800508473     
   4.5506691411982395E-004   316.43256866228091     
   4.6429263698326300E-004   316.21694746445775     
   4.7370535170441759E-004   315.99989210015377     
   4.8330884652017064E-004   315.78122152147182     
   4.9310698633841632E-004   315.56103630953464     
   5.0310371428678095E-004   315.33925375831552     
   5.1330305329250528E-004   315.11579956966642     
   5.2370910769410767E-004   314.89075418660718     
   5.3432606488545997E-004   314.66393160075211     
   5.4515819699293077E-004   314.43543514565624     
   5.5620986258623844E-004   314.20517261760028     
   5.6748550842371020E-004   313.97307381266398     
   5.7898967123260489E-004   313.73921184190186     
   5.9072697952522273E-004   313.50339531105050     
   6.0270215545149856E-004   313.26573017689776     
   6.1492001668880867E-004   313.02611444150642     
   6.2738547836973147E-004   312.78448163891937     
   6.4010355504852498E-004   312.54089745530274     
   6.5307936270707291E-004   312.29516462412744     
   6.6631812080109954E-004   312.04739163370670     
   6.7982515434744412E-004   311.79746633848924     
   6.9360589605321689E-004   311.54532565712469     
   7.0766588848766019E-004   311.29102775269678     
   7.2201078629756388E-004   311.03436893047541     
   7.3664635846710244E-004   310.77546016789080     
   7.5157849062297251E-004   310.51417875282385     
   7.6681318738571966E-004   310.25046464399435     
   7.8235657476818476E-004   309.98436837959264     
   7.9821490262198703E-004   309.71567920133953     
   8.1439454713299762E-004   309.44451059730204     
   8.3090201336678208E-004   309.17072879410279     
   8.4774393786498422E-004   308.89427646251119     
   8.6492709129366244E-004   308.61519641260730     
   8.8245838114461492E-004   308.33327009641238     
   9.0034485449071351E-004   308.04861361610699     
   9.1859370079633903E-004   307.76108155470536     
   9.3721225478398133E-004   307.47061899339815     
   9.5620799935812592E-004   307.17726091242713     
   9.7558856858753935E-004   306.88078014400600     
   9.9536175074711134E-004   306.58129561197597     
   1.0155354914204299E-003   306.27864957177246     
   1.0361178966642570E-003   305.97278925228989     
   1.0571172362361496E-003   305.66374170743165     
   1.0785419468864492E-003   305.35127020034480     
   1.1004006357158960E-003   305.03549681514079     
   1.1227020836001595E-003   304.71625067776307     
   1.1454552486826056E-003   304.39348095669351     
   1.1686692699366110E-003   304.06720669300324     
   1.1923534707988011E-003   303.73718049482187     
   1.2165173628745894E-003   303.40352810899310     
   1.2411706497174335E-003   303.06606459306175     
   1.2663232306832383E-003   302.72474092105767     
   1.2919852048613679E-003   302.37956805078824     
   1.3181668750837745E-003   302.03028669248357     
   1.3448787520137324E-003   301.67702696167817     
   1.3721315583157558E-003   301.31958874944689     
   1.3999362329082581E-003   300.95792479934153     
   1.4283039353005409E-003   300.59203793916805     
   1.4572460500157989E-003   300.22165555812336     
   1.4867741911017359E-003   299.84691309757392     
   1.5169002067305390E-003   299.46759399917954     
   1.5476361838899222E-003   299.08365286714752     
   1.5789944531669738E-003   298.69508438581579     
   1.6109875936266315E-003   298.30160099313059     
   1.6436284377865729E-003   297.90334472167638     
   1.6769300766904085E-003   297.50008106620857     
   1.7109058650810395E-003   297.09176674503323     
   1.7455694266761078E-003   296.67838833080657     
   1.7809346595475009E-003   296.25964144212332     
   1.8170157416069056E-003   295.83567634430852     
   1.8538271361994150E-003   295.40623883914697     
   1.8913835978072904E-003   294.97128821676171     
   1.9297001778659404E-003   294.53080303013303     
   1.9687922306942623E-003   294.08445993726281     
   2.0086754195415535E-003   293.63241953416173     
   2.0493657227531633E-003   293.17440589625437     
   2.0908794400571360E-003   292.71038159703966     
   2.1332331989742000E-003   292.24031734072435     
   2.1764439613533343E-003   291.76386837012723     
   2.2205290300353763E-003   291.28120826059626     
   2.2655060556470313E-003   290.79203699680284     
   2.3113930435277466E-003   290.29632145886194     
   2.3582083607919511E-003   289.79402273487256     
   2.4059707435292038E-003   289.28477796018637     
   2.4546993041448233E-003   288.76877087742554     
   2.5044135388436403E-003   288.24567667689496     
   2.5551333352595018E-003   287.71546794682314     
   2.6068789802333099E-003   287.17809471581211     
   2.6596711677422846E-003   286.63317833095164     
   2.7135310069833179E-003   286.08091125557377     
   2.7684800306132049E-003   285.52094255635996     
   2.8245402031487400E-003   284.95325238479899     
   2.8817339295295280E-003   284.37777986742327     
   2.9400840638465708E-003   283.79412811437629     
   2.9996139182396713E-003   283.20250209537426     
   3.0603472719667102E-003   282.60252150078270     
   3.1223083806479449E-003   281.99417643784625     
   3.1855219856885804E-003   281.37739540103263     
   3.2500133238827686E-003   280.75176058380890     
   3.3158081372023905E-003   280.11749404307221     
   3.3829326827739484E-003   279.47418239069310     
   3.4514137430469555E-003   278.82182871011912     
   3.5212786361572884E-003   278.16035129433197     
   3.5925552264889958E-003   277.48930846546386     
   3.6652719354381014E-003   276.80894489927385     
   3.7394577523820706E-003   276.11880992656910     
   3.8151422458585042E-003   275.41892335020873     
   3.8923555749568678E-003   274.70919391915174     
   3.9711285009269952E-003   273.98915279308790     
   4.0514923990081298E-003   273.25907393358966     
   4.1334792704825303E-003   272.51846463631028     
   4.2171217549574237E-003   271.76736598401681     
   4.3024531428793381E-003   271.00567815710372     
   4.3895073882849901E-003   270.23290143878484     
   4.4783191217925983E-003   269.44934709646202     
   4.5689236638379845E-003   268.65447503643350     
   4.6613570381595741E-003   267.84835308644296     
   4.7556559855365978E-003   267.03087427617498     
   4.8518579777847935E-003   266.20150375417620     
   4.9500012320140493E-003   265.36059972332225     
   5.0501247251523379E-003   264.50756870425352     
   5.1522682087405281E-003   263.64251170915497     
   5.2564722240025542E-003   262.76531664592784     
   5.3627781171956008E-003   261.87540855722131     
   5.4712280552449023E-003   260.97320412186474     
   5.5818650416679392E-003   260.05804980679159     
   5.6947329327927268E-003   259.13008726038260     
   5.8098764542751178E-003   258.18920213569049     
   5.9273412179198636E-003   257.23477345201644     
   6.0471737388105252E-003   256.26729016754916     
   6.1694214527529996E-003   255.28603134634187     
   6.2941327340379572E-003   254.29118772313558     
   6.4213569135270340E-003   253.28264670380150     
   6.5511442970680638E-003   252.25973410208695     
   6.6835461842444221E-003   251.22302763114430     
   6.8186148874638383E-003   250.17173094337696     
   6.9564037513918167E-003   249.10609321635081     
   7.0969671727350529E-003   248.02600915716860     
   7.2403606203802233E-003   246.93074249720902     
   7.3866406558935208E-003   245.82097932466013     
   7.5358649543863570E-003   244.69583927835114     
   7.6880923257527890E-003   243.55564003674883     
   7.8433827362840939E-003   242.40029122038948     
